T;DXP (m);DZP (m);DXU (m);DZU (m);AXP (m/s^2);AZP (m/s^2);AXU (m/s^2);AZU (m/s^2)
0.005;2.3583e-08;9.1278e-08;2.315e-08;9.1281e-08;0.001871;0.0072419;0.0018367;0.0072422
0.01;8.516e-08;3.9503e-07;9.0528e-08;4.0947e-07;0.0012001;0.0098347;0.0017278;0.01098
0.015;1.3699e-07;8.8041e-07;1.674e-07;9.698800000000001e-07;-0.0019804;0.0047077;-0.00096435;0.0084037
0.02;1.1155e-07;1.4026e-06;1.7744e-07;1.6893e-06;-0.0042084;-0.0017631;-0.004379;0.0043244
0.025;-3.9124e-08;1.7963e-06;4.1964e-08;2.4494e-06;-0.0058107;-0.0085088;-0.0072685;-0.0010598
0.03;-3.4612e-07;1.9137e-06;-2.8615e-07;3.1111e-06;-0.0067007;-0.013617;-0.0081552;-0.0068175
0.035;-8.1936e-07;1.6655e-06;-8.3203e-07;3.5367e-06;-0.0066035;-0.015636;-0.0092558;-0.012073
0.04;-1.4536e-06;1.0491e-06;-1.6544e-06;3.6141e-06;-0.0062793;-0.013853;-0.012848;-0.015798
0.045;-2.24e-06;1.5221e-07;-2.8383e-06;3.2868e-06;-0.0058844;-0.0085922;-0.016089;-0.016593
0.05;-3.1611e-06;-8.7483e-07;-4.4291e-06;2.5778e-06;-0.0049041;-0.0018254;-0.01648;-0.013955
0.055;-4.1765e-06;-1.8705e-06;-6.4171e-06;1.5748e-06;-0.0026476;0.0043398;-0.015294;-0.0095715
0.06;-5.2215e-06;-2.7093e-06;-8.7716e-06;3.781e-07;0.0002797;0.0082253;-0.014029;-0.0059187
0.065;-6.2344e-06;-3.335e-06;-1.1467e-05;-9.4627e-07;0.0023019;0.008842;-0.013212;-0.0042818
0.07;-7.1847e-06;-3.7769e-06;-1.45e-05;-2.3903e-06;0.002705;0.0058783;-0.013853;-0.0052761
0.075;-8.0887e-06;-4.1463e-06;-1.7914e-05;-4.0205e-06;0.0010177;-6.3588e-05;-0.01658;-0.0095969
0.08;-9.0145e-06;-4.6106e-06;-2.1786e-05;-5.9851e-06;-0.0027489;-0.0075226;-0.020053;-0.017146
0.085;-1.0064e-05;-5.3482e-06;-2.6201e-05;-8.4997e-06;-0.007148;-0.014356;-0.02338;-0.026841
0.09;-1.132e-05;-6.4918e-06;-3.1236e-05;-1.1811e-05;-0.0093815;-0.018139;-0.026216;-0.036919
0.095;-1.2785e-05;-8.0778e-06;-3.6934e-05;-1.6139e-05;-0.0073717;-0.017282;-0.026887;-0.044437
0.1;-1.4369e-05;-1.0028e-05;-4.3272e-05;-2.16e-05;-0.0021751;-0.011888;-0.024274;-0.046163
0.105;-1.5932e-05;-1.2172e-05;-5.0154e-05;-2.8144e-05;0.0038605;-0.0035675;-0.019316;-0.040621
0.11;-1.7338e-05;-1.429e-05;-5.7448e-05;-3.5558e-05;0.0086887;0.005617;-0.013557;-0.028961
0.115;-1.8499e-05;-1.6165e-05;-6.4998e-05;-4.3511e-05;0.011015;0.013817;-0.0069769;-0.01414
0.12;-1.9384e-05;-1.763e-05;-7.2625e-05;-5.1637e-05;0.010998;0.018992;0.00078292;0.00027375
0.125;-2.0017e-05;-1.8614e-05;-8.0142e-05;-5.9619e-05;0.0091548;0.019493;0.0080247;0.011281
0.13;-2.046e-05;-1.9163e-05;-8.7393e-05;-6.7244e-05;0.0060484;0.015352;0.01334;0.017301
0.135;-2.0797e-05;-1.942e-05;-9.4264e-05;-7.4427e-05;0.002505;0.0080719;0.01697;0.018152
0.14;-2.1113e-05;-1.9571e-05;-0.00010069;-8.1194e-05;-0.00086834;0.00033243;0.018463;0.015074
0.145;-2.1481e-05;-1.978e-05;-0.00010667;-8.7647e-05;-0.0032695;-0.0049673;0.017773;0.010048
0.15;-2.1938e-05;-2.0134e-05;-0.00011221;-9.3912e-05;-0.0039456;-0.0066117;0.016721;0.0050202
0.155;-2.2483e-05;-2.0643e-05;-0.00011734;-0.00010008;-0.0030351;-0.0058593;0.016898;0.0024283
0.16;-2.3082e-05;-2.1289e-05;-0.00012202;-0.00010616;-0.0012573;-0.0050654;0.01867;0.0051296
0.165;-2.3687e-05;-2.2063e-05;-0.00012618;-0.00011199;0.00074304;-0.0052052;0.022483;0.014379
0.17;-2.4246e-05;-2.2967e-05;-0.0001297;-0.00011729;0.0028981;-0.0051036;0.029066;0.028195
0.175;-2.4708e-05;-2.397e-05;-0.00013239;-0.0001217;0.004889;-0.0029414;0.0374;0.042798
0.18;-2.5032e-05;-2.4985e-05;-0.00013405;-0.00012489;0.0061661;0.0020062;0.045372;0.055039
0.185;-2.5193e-05;-2.5863e-05;-0.00013449;-0.00012661;0.0068687;0.0089657;0.051809;0.063047
0.19;-2.5178e-05;-2.6431e-05;-0.00013359;-0.00012671;0.0071931;0.015859;0.055186;0.065606
0.195;-2.4978e-05;-2.655e-05;-0.00013133;-0.00012522;0.0076661;0.020018;0.053857;0.062098
0.2;-2.4564e-05;-2.6168e-05;-0.00012779;-0.00012229;0.0094305;0.020152;0.048522;0.053284
0.205;-2.3875e-05;-2.5318e-05;-0.00012313;-0.00011818;0.012484;0.017245;0.04179;0.041454
0.21;-2.2839e-05;-2.4092e-05;-0.00011748;-0.00011317;0.015338;0.012888;0.036142;0.029872
0.215;-2.1408e-05;-2.2613e-05;-0.00011098;-0.00010752;0.016337;0.0073313;0.032958;0.021634
0.22;-1.9592e-05;-2.1042e-05;-0.00010366;-0.00010137;0.014418;1.7437e-05;0.032293;0.018055
0.225;-1.7471e-05;-1.9568e-05;-9.5514e-05;-9.4766e-05;0.00993;-0.0077731;0.033407;0.018373
0.23;-1.5175e-05;-1.8348e-05;-8.6517e-05;-8.7677e-05;0.0042029;-0.012531;0.03492;0.020533
0.235;-1.2839e-05;-1.7423e-05;-7.6639e-05;-8.0052e-05;-0.0011258;-0.011092;0.035523;0.022267
0.24;-1.0569e-05;-1.6671e-05;-6.5883e-05;-7.1868e-05;-0.0040822;-0.0028293;0.034756;0.022487
0.245;-8.3935e-06;-1.5835e-05;-5.4291e-05;-6.3133e-05;-0.0035653;0.0095384;0.03214;0.021545
0.25;-6.2641e-06;-1.4612e-05;-4.1957e-05;-5.3872e-05;-0.00010083;0.021478;0.027209;0.020594
0.255;-4.0745e-06;-1.2754e-05;-2.9025e-05;-4.4099e-05;0.0049072;0.02931;0.020656;0.020337
0.26;-1.6986e-06;-1.0141e-05;-1.5655e-05;-3.3823e-05;0.010005;0.031077;0.014361;0.019872
0.265;9.7008e-07;-6.8115e-06;-1.9814e-06;-2.3078e-05;0.013422;0.026342;0.009932;0.017728
0.27;3.9702e-06;-2.9536e-06;1.1912e-05;-1.1941e-05;0.013123;0.01594;0.0076613;0.013617
0.275;7.2325e-06;1.1274e-06;2.5983e-05;-5.2674e-07;0.0078725;0.0019203;0.0064829;0.008549
0.28;1.0568e-05;5.0726e-06;4.0187e-05;1.1036e-05;-0.0019595;-0.012779;0.0041804;0.003315
0.285;1.3707e-05;8.552e-06;5.4426e-05;2.2611e-05;-0.013865;-0.024519;-0.0012944;-0.0022441
0.29;1.6373e-05;1.1353e-05;6.8518e-05;3.405e-05;-0.023867;-0.029813;-0.010491;-0.0087037
0.295;1.8383e-05;1.3441e-05;8.2194e-05;4.5179e-05;-0.028704;-0.027237;-0.022775;-0.016093
0.3;1.9693e-05;1.4956e-05;9.5126e-05;5.5819e-05;-0.027305;-0.018583;-0.03678;-0.023028
0.305;2.0404e-05;1.6138e-05;0.00010697;6.5831e-05;-0.020683;-0.0081093;-0.050252;-0.027216
0.31;2.0719e-05;1.7218e-05;0.00011743;7.5166e-05;-0.010962;-8.0417e-05;-0.060138;-0.026991
0.315;2.0889e-05;1.8337e-05;0.00012635;8.3876e-05;-0.00062566;0.0033168;-0.063773;-0.02298
0.32;2.1151e-05;1.9531e-05;0.00013371;9.2076e-05;0.0079325;0.0026408;-0.060322;-0.017906
0.325;2.1672e-05;2.0758e-05;0.00013968;9.9864e-05;0.012893;4.774e-06;-0.051425;-0.014932
0.33;2.2516e-05;2.1945e-05;0.00014449;0.00010726;0.012915;-0.0031198;-0.041243;-0.016452
0.335;2.3624e-05;2.3015e-05;0.00014836;0.00011416;0.0082114;-0.0062899;-0.034238;-0.023165
0.34;2.4846e-05;2.3894e-05;0.00015138;0.00012035;0.00095655;-0.0090701;-0.03297;-0.034059
0.345;2.6003e-05;2.4526e-05;0.00015352;0.00012551;-0.0061394;-0.010605;-0.037953;-0.047375
0.35;2.6948e-05;2.4894e-05;0.00015459;0.00012932;-0.010904;-0.010533;-0.047863;-0.061293
0.355;2.7599e-05;2.5013e-05;0.00015431;0.00013145;-0.012571;-0.0094073;-0.060071;-0.073104
0.36;2.7941e-05;2.4911e-05;0.00015238;0.00013168;-0.012174;-0.0083017;-0.071289;-0.079088
0.365;2.7985e-05;2.4601e-05;0.00014859;0.00012996;-0.011711;-0.0083202;-0.078028;-0.076583
0.37;2.7733e-05;2.407e-05;0.00014286;0.00012646;-0.011943;-0.0092933;-0.076643;-0.065596
0.375;2.7176e-05;2.3303e-05;0.00013537;0.00012153;-0.012381;-0.0096276;-0.065329;-0.049281
0.38;2.6307e-05;2.232e-05;0.00012647;0.00011557;-0.012658;-0.007749;-0.046178;-0.032924
0.385;2.5123e-05;2.1196e-05;0.0001167;0.00010894;-0.01257;-0.003413;-0.024376;-0.021312
0.39;2.3628e-05;2.0055e-05;0.00010654;0.00010183;-0.012247;0.0019474;-0.0061947;-0.016465
0.395;2.1838e-05;1.9013e-05;9.6362e-05;9.4295e-05;-0.011371;0.0060847;0.0040971;-0.017285
0.4;1.9792e-05;1.8139e-05;8.6302e-05;8.6287e-05;-0.0090796;0.0073045;0.0057723;-0.02087
0.405;1.7569e-05;1.742e-05;7.6322e-05;7.7711e-05;-0.0051935;0.0051024;0.00064587;-0.024445
0.41;1.5269e-05;1.6756e-05;6.6245e-05;6.8497e-05;-0.00087098;-0.00062011;-0.0083357;-0.026739
0.415;1.2981e-05;1.5969e-05;5.584e-05;5.861e-05;0.0018186;-0.009297;-0.01797;-0.026988
0.42;1.0727e-05;1.4826e-05;4.4894e-05;4.8087e-05;0.00093374;-0.019139;-0.025313;-0.02399
0.425;8.4353e-06;1.3099e-05;3.3283e-05;3.7049e-05;-0.0039645;-0.027603;-0.027919;-0.01721
0.43;5.952e-06;1.0637e-05;2.1014e-05;2.5706e-05;-0.011335;-0.031171;-0.024746;-0.0071819
0.435;3.0927e-06;7.4479e-06;8.2198e-06;1.4323e-05;-0.018754;-0.027086;-0.017284;0.0039798
0.44;-2.8909e-07;3.7241e-06;-4.8934e-06;3.1529e-06;-0.023072;-0.015716;-0.0082411;0.013037
0.445;-4.2317e-06;-2.034e-07;-1.8119e-05;-7.6323e-06;-0.021823;-0.00058906;-0.00070063;0.017794
0.45;-8.6256e-06;-3.9741e-06;-3.1315e-05;-1.7968e-05;-0.014312;0.013147;0.0030631;0.018206
0.455;-1.3214e-05;-7.3157e-06;-4.4431e-05;-2.7878e-05;-0.0012381;0.021223;0.0033172;0.015863
0.46;-1.7633e-05;-1.0124e-05;-5.748e-05;-3.7438e-05;0.014699;0.021501;0.0020642;0.012085
0.465;-2.1496e-05;-1.2478e-05;-7.0476e-05;-4.6754e-05;0.029845;0.014789;0.0021372;0.0074877
0.47;-2.4494e-05;-1.4589e-05;-8.3391e-05;-5.594e-05;0.039406;0.0047243;0.0044341;0.0028755
0.475;-2.6512e-05;-1.67e-05;-9.6153e-05;-6.5103e-05;0.039047;-0.004722;0.0077264;-0.0010097
0.48;-2.7678e-05;-1.9004e-05;-0.00010867;-7.4322e-05;0.02913;-0.010753;0.012028;-0.0034632
0.485;-2.8303e-05;-2.1587e-05;-0.00012081;-8.3629e-05;0.01418;-0.01155;0.018015;-0.0036111
0.49;-2.8746e-05;-2.439e-05;-0.0001324;-9.2992e-05;0.00036492;-0.0061839;0.025695;-0.00093285
0.495;-2.9275e-05;-2.7209e-05;-0.00014325;-0.00010231;-0.0072551;0.0049678;0.034127;0.0045324
0.5;-2.9976e-05;-2.9721e-05;-0.00015314;-0.00011142;-0.0066039;0.019546;0.042071;0.012562
0.505;-3.0748e-05;-3.1572e-05;-0.0001619;-0.00012007;0.00088326;0.033327;0.048608;0.023088
0.51;-3.1373e-05;-3.2484e-05;-0.00016938;-0.00012799;0.010883;0.041816;0.053227;0.036002
0.515;-3.1625e-05;-3.235e-05;-0.00017549;-0.00013484;0.019045;0.041983;0.05689;0.050036
0.52;-3.1356e-05;-3.1267e-05;-0.00018013;-0.00014027;0.022642;0.03388;0.061479;0.062678
0.525;-3.0545e-05;-2.9504e-05;-0.00018313;-0.00014404;0.020707;0.020652;0.06819;0.071217
0.53;-2.9301e-05;-2.74e-05;-0.00018433;-0.00014599;0.013974;0.006536;0.076716;0.073863
0.535;-2.782e-05;-2.5272e-05;-0.0001835;-0.00014612;0.004971;-0.0046108;0.085622;0.071165
0.54;-2.6316e-05;-2.3337e-05;-0.00018044;-0.00014455;-0.0031666;-0.010879;0.092541;0.065359
0.545;-2.4952e-05;-2.1691e-05;-0.00017504;-0.00014142;-0.0080035;-0.012212;0.094978;0.05932
0.55;-2.3785e-05;-2.0312e-05;-0.0001673;-0.00013686;-0.0078141;-0.0092465;0.092057;0.055876
0.555;-2.2749e-05;-1.9098e-05;-0.00015736;-0.00013089;-0.0026788;-0.003879;0.084223;0.056031
0.56;-2.168e-05;-1.7917e-05;-0.00014545;-0.00012348;0.0053355;0.0012366;0.0729;0.059038
0.565;-2.038e-05;-1.6669e-05;-0.00013188;-0.00011454;0.013095;0.0040666;0.060377;0.063573
0.57;-1.8697e-05;-1.5319e-05;-0.00011694;-0.00010396;0.017608;0.0041672;0.04915;0.068139
0.575;-1.6578e-05;-1.3878e-05;-0.00010087;-9.1634e-05;0.017317;0.0031449;0.041033;0.071018
0.58;-1.4089e-05;-1.2352e-05;-8.3839e-05;-7.7548e-05;0.012264;0.0035521;0.035994;0.070005
0.585;-1.1391e-05;-1.0695e-05;-6.5948e-05;-6.18e-05;0.0044849;0.006965;0.032726;0.062913
0.59;-8.6703e-06;-8.7898e-06;-4.728e-05;-4.4651e-05;-0.0026603;0.012877;0.029435;0.049178
0.595;-6.0575e-06;-6.4844e-06;-2.794e-05;-2.65e-05;-0.0060161;0.019138;0.024299;0.031041
0.6;-3.5627e-06;-3.651e-06;-8.0901e-06;-7.8037e-06;-0.003453;0.023114;0.016547;0.012549
0.605;-1.0505e-06;-2.3871e-07;1.2046e-05;1.1019e-05;0.004814;0.023227;0.0063678;-0.0024125
0.61;1.7277e-06;3.7076e-06;3.2204e-05;2.9665e-05;0.016455;0.019505;-0.0046745;-0.011861
0.615;5.0574e-06;8.0599e-06;5.2128e-05;4.796e-05;0.027682;0.012994;-0.013978;-0.016169
0.62;9.15e-06;1.264e-05;7.1626e-05;6.584e-05;0.033379;0.005254;-0.02021;-0.017028
0.625;1.4037e-05;1.726e-05;9.058e-05;8.3302e-05;0.03021;-0.0021062;-0.023235;-0.016403
0.63;1.9538e-05;2.1766e-05;0.00010895;0.00010037;0.018957;-0.0070695;-0.023348;-0.015394
0.635;2.532e-05;2.6087e-05;0.00012677;0.00011706;0.0035996;-0.0076669;-0.021286;-0.014408
0.64;3.1012e-05;3.0267e-05;0.00014409;0.00013339;-0.010916;-0.0036729;-0.018352;-0.014379
0.645;3.631e-05;3.4439e-05;0.00016097;0.00014934;-0.020555;0.002999;-0.016271;-0.016351
0.65;4.106e-05;3.876e-05;0.00017745;0.00016483;-0.023362;0.0089874;-0.016571;-0.020237
0.655;4.5256e-05;4.3324e-05;0.00019345;0.00017976;-0.020977;0.010478;-0.020893;-0.024722
0.66;4.8984e-05;4.8083e-05;0.00020884;0.00019403;-0.016496;0.0050695;-0.029012;-0.02798
0.665;5.2349e-05;5.2815e-05;0.00022338;0.00020758;-0.012521;-0.0070843;-0.038171;-0.029331
0.67;5.5406e-05;5.716e-05;0.00023687;0.00022038;-0.012067;-0.023939;-0.046012;-0.030875
0.675;5.811e-05;6.0686e-05;0.00024916;0.00023235;-0.016113;-0.041527;-0.050614;-0.035644
0.68;6.0329e-05;6.3012e-05;0.00026017;0.00024332;-0.022768;-0.054578;-0.050995;-0.04475
0.685;6.189e-05;6.3914e-05;0.00026993;0.00025301;-0.029813;-0.059285;-0.048841;-0.057319
0.69;6.264e-05;6.3392e-05;0.0002785;0.00026109;-0.035089;-0.054779;-0.047184;-0.07124
0.695;6.2499e-05;6.166e-05;0.00028587;0.00026724;-0.036285;-0.041994;-0.048599;-0.083279
0.7;6.1504e-05;5.9109e-05;0.00029195;0.00027121;-0.031974;-0.023557;-0.054481;-0.09078
0.705;5.9834e-05;5.621e-05;0.00029654;0.00027288;-0.022147;-0.0043121;-0.06403;-0.093355
0.71;5.7783e-05;5.3396e-05;0.00029941;0.00027225;-0.0082895;0.011164;-0.074312;-0.091213
0.715;5.5698e-05;5.0969e-05;0.00030031;0.00026941;0.0055964;0.019861;-0.082973;-0.084965
0.72;5.3867e-05;4.9044e-05;0.00029907;0.00026456;0.014794;0.020267;-0.08879;-0.076951
0.725;5.2428e-05;4.7543e-05;0.00029558;0.00025785;0.016532;0.013701;-0.090831;-0.070307
0.73;5.1322e-05;4.6257e-05;0.00028984;0.00024942;0.010165;0.003564;-0.089502;-0.068329
0.735;5.0321e-05;4.4937e-05;0.0002819;0.00023922;-0.0017222;-0.0063205;-0.086027;-0.073112
0.74;4.9124e-05;4.337e-05;0.00027186;0.00022705;-0.014008;-0.013487;-0.081679;-0.084013
0.745;4.7482e-05;4.1408e-05;0.00025984;0.00021261;-0.021649;-0.018059;-0.077334;-0.097614
0.75;4.5297e-05;3.8956e-05;0.00024594;0.0001956;-0.021782;-0.021189;-0.073331;-0.10818
0.755;4.2658e-05;3.5942e-05;0.00023025;0.00017587;-0.014517;-0.023751;-0.069457;-0.11027
0.76;3.9803e-05;3.2309e-05;0.00021288;0.00015348;-0.0028967;-0.025837;-0.064952;-0.10144
0.765;3.7004e-05;2.8024e-05;0.00019395;0.0001288;0.0074889;-0.026224;-0.059474;-0.082179
0.77;3.4447e-05;2.3115e-05;0.00017363;0.0001024;0.0119;-0.023816;-0.052264;-0.05555
0.775;3.2143e-05;1.7667e-05;0.00015213;7.4969e-05;0.008372;-0.01925;-0.042402;-0.026903
0.78;2.9916e-05;1.1809e-05;0.00012972;4.7183e-05;-0.0022309;-0.013579;-0.029955;-0.0014476
0.785;2.7459e-05;5.6952e-06;0.00010673;1.9597e-05;-0.016129;-0.0068904;-0.016069;0.0175
0.79;2.4446e-05;-4.9566e-07;8.3511e-05;-7.4203e-06;-0.028354;0.00072662;-0.0030246;0.028019
0.795;2.0648e-05;-6.5707e-06;6.0338e-05;-3.3712e-05;-0.034523;0.0085435;0.0071055;0.030055
0.8;1.6016e-05;-1.2354e-05;3.7425e-05;-5.9305e-05;-0.032218;0.014799;0.013626;0.02591
0.805;1.0706e-05;-1.7741e-05;1.4894e-05;-8.433e-05;-0.022035;0.016923;0.017013;0.019579
0.81;5.0192e-06;-2.2748e-05;-7.2035e-06;-0.00010891;-0.0081122;0.013568;0.017655;0.015955
0.815;-7.1892e-07;-2.7515e-05;-2.8876e-05;-0.00013306;0.0040064;0.0055506;0.016351;0.018428
0.82;-6.2776e-06;-3.227e-05;-5.0155e-05;-0.00015664;0.010386;-0.0045234;0.015115;0.026959
0.825;-1.1584e-05;-3.7245e-05;-7.1045e-05;-0.0001794;0.0098448;-0.013118;0.016004;0.038532
0.83;-1.6717e-05;-4.2593e-05;-9.1487e-05;-0.00020107;0.0040357;-0.016746;0.019836;0.049455
0.835;-2.184e-05;-4.8308e-05;-0.00011136;-0.00022139;-0.0033016;-0.012621;0.025835;0.057916
0.84;-2.71e-05;-5.418e-05;-0.0001305;-0.00024018;-0.0076274;5.3285e-07;0.032266;0.064382
0.845;-3.2529e-05;-5.9813e-05;-0.00014878;-0.00025729;-0.0058935;0.019022;0.036843;0.070195
0.85;-3.7994e-05;-6.4715e-05;-0.00016612;-0.00027258;0.0029572;0.039548;0.038527;0.075677
0.855;-4.3202e-05;-6.8429e-05;-0.0001825;-0.00028592;0.017573;0.055538;0.037984;0.080255
0.86;-4.7767e-05;-7.0671e-05;-0.00019796;-0.0002972;0.033872;0.062237;0.03655;0.083913
0.865;-5.1322e-05;-7.1413e-05;-0.0002125;-0.00030634;0.046913;0.057828;0.036149;0.087733
0.87;-5.3642e-05;-7.0883e-05;-0.00022611;-0.00031323;0.051993;0.043942;0.038039;0.092875
0.875;-5.473e-05;-6.95e-05;-0.00023872;-0.00031772;0.046619;0.024309;0.042556;0.098313
0.88;-5.4833e-05;-6.776e-05;-0.00025018;-0.00031972;0.03218;0.0042828;0.049402;0.10134
0.885;-5.4368e-05;-6.6094e-05;-0.0002603;-0.0003192;0.013264;-0.010208;0.057313;0.09967
0.89;-5.3795e-05;-6.4745e-05;-0.00026891;-0.00031628;-0.0045523;-0.015297;0.063869;0.092809
0.895;-5.3481e-05;-6.372e-05;-0.00027588;-0.00031116;-0.016313;-0.010553;0.066834;0.083101
0.9;-5.3607e-05;-6.2814e-05;-0.0002812;-0.00030407;-0.018842;0.00088461;0.065838;0.074758
0.905;-5.4122e-05;-6.1722e-05;-0.00028492;-0.00029515;-0.01239;0.014072;0.06219;0.071646
0.91;-5.4795e-05;-6.0143e-05;-0.00028713;-0.00028439;-0.00021965;0.024896;0.0584;0.075492
0.915;-5.5313e-05;-5.7862e-05;-0.0002879;-0.00027162;0.012596;0.031297;0.056939;0.085078
0.92;-5.5411e-05;-5.4783e-05;-0.00028721;-0.00025658;0.021014;0.032511;0.059325;0.096387
0.925;-5.4976e-05;-5.0942e-05;-0.00028497;-0.00023903;0.021681;0.02851;0.065303;0.10429
0.93;-5.4091e-05;-4.6488e-05;-0.00028099;-0.00021887;0.014364;0.020553;0.072832;0.10476
0.935;-5.2989e-05;-4.164e-05;-0.00027512;-0.00019621;0.0030587;0.010952;0.079585;0.095341
0.94;-5.1929e-05;-3.6618e-05;-0.00026721;-0.00017141;-0.0065061;0.0030432;0.082852;0.075978
0.945;-5.107e-05;-3.1553e-05;-0.00025727;-0.00014504;-0.0095769;0.00024944;0.080245;0.049777
0.95;-5.0382e-05;-2.6442e-05;-0.00024543;-0.00011777;-0.0042059;0.0034213;0.071026;0.022132
0.955;-4.9652e-05;-2.1166e-05;-0.00023201;-9.0232e-05;0.0075585;0.0097874;0.056246;-0.00085518
0.96;-4.8567e-05;-1.5589e-05;-0.00021739;-6.2886e-05;0.020925;0.014387;0.038798;-0.014546
0.965;-4.6837e-05;-9.6712e-06;-0.00020201;-3.5947e-05;0.030624;0.012815;0.022708;-0.018008
0.97;-4.431e-05;-3.5416e-06;-0.0001862;-9.4094e-06;0.033171;0.004192;0.011904;-0.014154
0.975;-4.1021e-05;2.5454e-06;-0.00017013;1.6855e-05;0.027917;-0.0075971;0.0084266;-0.0076826
0.98;-3.7174e-05;8.3281e-06;-0.00015381;4.2981e-05;0.016637;-0.016768;0.011185;-0.0034187
0.985;-3.3083e-05;1.3663e-05;-0.00013715;6.9005e-05;0.0029791;-0.019115;0.016776;-0.0047039
0.99;-2.905e-05;1.8593e-05;-0.00012;9.4819e-05;-0.0077091;-0.013246;0.02188;-0.012
0.995;-2.5247e-05;2.3351e-05;-0.00010228;0.00012019;-0.010737;-0.00066529;0.02393;-0.023346
1.0;-2.1644e-05;2.8288e-05;-8.4e-05;0.00014483;-0.0053043;0.015096;0.020556;-0.035472
1.005;-1.8024e-05;3.378e-05;-6.533e-05;0.00016845;0.0066812;0.029239;0.010902;-0.045966
1.01;-1.4086e-05;4.0051e-05;-4.653e-05;0.00019084;0.018789;0.033221;-0.00041869;-0.052418
1.015;-9.5774e-06;4.7019e-05;-2.7856e-05;0.00021188;0.026812;0.022594;-0.0096912;-0.055241
1.02;-4.3888e-06;5.4255e-05;-9.4778e-06;0.00023155;0.027664;-0.001112;-0.014017;-0.054951
1.025;1.3937e-06;6.1093e-05;8.5863e-06;0.00024988;0.019891;-0.030764;-0.011154;-0.051915
1.03;7.5036e-06;6.6851e-05;2.6493e-05;0.00026696;0.0063278;-0.055658;-0.0014868;-0.048765
1.035;1.359e-05;7.1082e-05;4.453e-05;0.00028281;-0.0081919;-0.066513;0.011948;-0.048702
1.04;1.9337e-05;7.3737e-05;6.3021e-05;0.00029739;-0.019042;-0.059715;0.024327;-0.053379
1.045;2.4545e-05;7.5153e-05;8.2192e-05;0.00031052;-0.024117;-0.039445;0.03022;-0.062099
1.05;2.9153e-05;7.5893e-05;0.00010207;0.00032198;-0.023844;-0.014626;0.026001;-0.071636
1.055;3.3217e-05;7.652e-05;0.00012242;0.00033158;-0.01968;0.0055455;0.0121;-0.078017
1.06;3.6866e-05;7.7396e-05;0.00014283;0.0003392;-0.013602;0.014519;-0.0071993;-0.079234
1.065;4.025e-05;7.858e-05;0.00016283;0.00034489;-0.0075238;0.010174;-0.025439;-0.076009
1.07;4.3497e-05;7.9831e-05;0.00018205;0.00034874;-0.0034691;-0.0047839;-0.037066;-0.070662
1.075;4.666e-05;8.072e-05;0.00020031;0.00035089;-0.003212;-0.024114;-0.039799;-0.065835
1.08;4.9696e-05;8.0806e-05;0.00021764;0.00035142;-0.0069227;-0.040207;-0.034749;-0.063886
1.085;5.2489e-05;7.9808e-05;0.00023422;0.00035031;-0.012553;-0.046595;-0.025513;-0.066804
1.09;5.4917e-05;7.7716e-05;0.00025027;0.00034741;-0.016601;-0.040941;-0.016744;-0.07626
1.095;5.6947e-05;7.4784e-05;0.00026596;0.00034241;-0.01529;-0.026288;-0.012219;-0.092154
1.1;5.8694e-05;7.1408e-05;0.00028131;0.00033487;-0.0074231;-0.009252;-0.014652;-0.11052
1.105;6.0395e-05;6.7959e-05;0.00029615;0.00032441;0.0037598;0.0034194;-0.025825;-0.1239
