T;DXP (m);DZP (m);DXU (m);DZU (m);AXP (m/s^2);AZP (m/s^2);AXU (m/s^2);AZU (m/s^2)
0.005;2.2329e-08;8.3623e-08;2.2292e-08;9.0949e-08;0.0017716;0.0066346;0.0017686;0.0072158
0.01;7.6421e-08;3.4694e-07;8.4994e-08;4.0707e-07;0.00080209;0.0078232;0.001491;0.010868
0.015;1.0917e-07;7.2632e-07;1.537e-07;9.6253e-07;-0.0025119;0.0014701;-0.0010102;0.0082843
0.02;5.8053e-08;1.0646e-06;1.6631e-07;1.6777e-06;-0.0042092;-0.0047638;-0.003478;0.0044972
0.025;-9.8479e-08;1.2359e-06;5.808e-08;2.4402e-06;-0.0042301;-0.0086094;-0.0061867;-0.00069749
0.03;-3.5258e-07;1.1787e-06;-2.3983e-07;3.1082e-06;-0.0035771;-0.0096918;-0.0089884;-0.0068625
0.035;-6.9512e-07;8.8682e-07;-7.912e-07;3.5381e-06;-0.0034923;-0.009078;-0.011293;-0.012193
0.04;-1.1308e-06;3.9507e-07;-1.6445e-06;3.6304e-06;-0.0039543;-0.0069249;-0.012866;-0.014835
0.045;-1.6613e-06;-2.2323e-07;-2.8326e-06;3.3516e-06;-0.0036438;-0.0032051;-0.013917;-0.014866
0.05;-2.2626e-06;-8.63e-07;-4.3799e-06;2.7238e-06;-0.0020265;0.0014839;-0.014824;-0.013053
0.055;-2.8862e-06;-1.4195e-06;-6.3064e-06;1.8053e-06;0.00023957;0.0051889;-0.015511;-0.010214
0.06;-3.4881e-06;-1.8358e-06;-8.6312e-06;6.4958e-07;0.0015096;0.0060433;-0.016346;-0.0087453
0.065;-4.0586e-06;-2.1292e-06;-1.1377e-05;-7.5012e-07;0.0010171;0.0037976;-0.01733;-0.010754
0.07;-4.6211e-06;-2.3752e-06;-1.4561e-05;-2.4778e-06;-0.00038237;5.1261e-06;-0.017768;-0.015475
0.075;-5.2203e-06;-2.6674e-06;-1.8196e-05;-4.6679e-06;-0.0025494;-0.0037035;-0.018248;-0.021512
0.08;-5.9121e-06;-3.0918e-06;-2.2299e-05;-7.4756e-06;-0.004862;-0.0068793;-0.01924;-0.027903
0.085;-6.7342e-06;-3.716e-06;-2.6893e-05;-1.1032e-05;-0.0055721;-0.0091131;-0.020044;-0.031979
0.09;-7.6715e-06;-4.5776e-06;-3.1982e-05;-1.538e-05;-0.0036551;-0.009879;-0.019512;-0.031435
0.095;-8.6527e-06;-5.6658e-06;-3.7523e-05;-2.046e-05;0.00013815;-0.008271;-0.016727;-0.027138
0.1;-9.5877e-06;-6.9066e-06;-4.342e-05;-2.6137e-05;0.0035599;-0.0039418;-0.011721;-0.020559
0.105;-1.0409e-05;-8.1706e-06;-4.9525e-05;-3.222e-05;0.0055735;0.0020759;-0.0048933;-0.011952
0.11;-1.1083e-05;-9.3104e-06;-5.5658e-05;-3.8488e-05;0.0061764;0.0078638;0.0025565;-0.0028681
0.115;-1.1617e-05;-1.0214e-05;-6.1647e-05;-4.4741e-05;0.005058;0.011019;0.0090232;0.004041
0.12;-1.2054e-05;-1.086e-05;-6.7345e-05;-5.0845e-05;0.0026805;0.0096388;0.014319;0.0079675
0.125;-1.2456e-05;-1.1338e-05;-7.2632e-05;-5.6729e-05;0.00014683;0.0038827;0.018514;0.009584
0.13;-1.2877e-05;-1.1808e-05;-7.7425e-05;-6.2377e-05;-0.0017201;-0.0033251;0.021005;0.0093926
0.135;-1.3347e-05;-1.2419e-05;-8.1679e-05;-6.7797e-05;-0.0022028;-0.0079529;0.022116;0.0087806
0.14;-1.3857e-05;-1.3225e-05;-8.537e-05;-7.2975e-05;-0.00091967;-0.0076272;0.02298;0.010518
0.145;-1.4356e-05;-1.416e-05;-8.8467e-05;-7.7821e-05;0.0016801;-0.0027688;0.024446;0.016101
0.15;-1.4786e-05;-1.5075e-05;-9.0923e-05;-8.2157e-05;0.0039426;0.004333;0.026885;0.024635
0.155;-1.5113e-05;-1.58e-05;-9.2663e-05;-8.5754e-05;0.0042856;0.010933;0.030351;0.034507
0.16;-1.5344e-05;-1.6202e-05;-9.3596e-05;-8.837e-05;0.0033772;0.014893;0.034279;0.043968
0.165;-1.5488e-05;-1.6225e-05;-9.3632e-05;-8.9802e-05;0.0035808;0.015504;0.037402;0.050827
0.17;-1.5505e-05;-1.5889e-05;-9.271e-05;-8.9934e-05;0.0065371;0.013186;0.039333;0.053085
0.175;-1.5305e-05;-1.528e-05;-9.0792e-05;-8.8777e-05;0.010801;0.0086425;0.040308;0.050184
0.18;-1.4808e-05;-1.4525e-05;-8.787e-05;-8.6448e-05;0.013019;0.0030421;0.040016;0.043534
0.185;-1.4003e-05;-1.375e-05;-8.3969e-05;-8.3123e-05;0.0117;-0.0013757;0.038308;0.036133
0.19;-1.2949e-05;-1.3024e-05;-7.9145e-05;-7.8958e-05;0.0081043;-0.0026691;0.035529;0.031064
0.195;-1.1735e-05;-1.2347e-05;-7.3471e-05;-7.4036e-05;0.0048015;-0.0011812;0.0325;0.029464
0.2;-1.0415e-05;-1.1665e-05;-6.701e-05;-6.8364e-05;0.0035825;0.0015136;0.030429;0.030526
0.205;-8.9997e-06;-1.0903e-05;-5.9793e-05;-6.1896e-05;0.0040656;0.0049362;0.030092;0.033153
0.21;-7.4687e-06;-9.9589e-06;-5.1804e-05;-5.4559e-05;0.0051922;0.0095903;0.031606;0.036363
0.215;-5.789e-06;-8.7086e-06;-4.2988e-05;-4.6287e-05;0.0066924;0.014909;0.034506;0.038438
0.22;-3.9224e-06;-7.0424e-06;-3.3271e-05;-3.7069e-05;0.0082658;0.018385;0.03764;0.037244
0.225;-1.8375e-06;-4.9309e-06;-2.2588e-05;-2.699e-05;0.0092102;0.017272;0.039658;0.031746
0.23;4.6628e-07;-2.4725e-06;-1.0924e-05;-1.6236e-05;0.0083032;0.010502;0.038801;0.022156
0.235;2.9295e-06;1.118e-07;1.6437e-06;-5.0861e-06;0.0044733;-0.00041397;0.033547;0.0096156
0.24;5.4275e-06;2.5486e-06;1.4932e-05;6.1442e-06;-0.0016834;-0.011395;0.024077;-0.0032184
0.245;7.8024e-06;4.6186e-06;2.8667e-05;1.7169e-05;-0.0081747;-0.01798;0.011729;-0.013209
0.25;9.9148e-06;6.241e-06;4.2528e-05;2.7798e-05;-0.012834;-0.017867;-0.0016936;-0.018536
0.255;1.1689e-05;7.4919e-06;5.6196e-05;3.7954e-05;-0.014236;-0.011878;-0.013702;-0.019296
0.26;1.3134e-05;8.5515e-06;6.9421e-05;4.7653e-05;-0.012152;-0.0034257;-0.021789;-0.017304
0.265;1.4329e-05;9.6156e-06;8.2055e-05;5.6947e-05;-0.0078254;0.0037988;-0.02554;-0.015076
0.27;1.5385e-05;1.0826e-05;9.403e-05;6.5867e-05;-0.0032867;0.0079066;-0.027148;-0.014785
0.275;1.6399e-05;1.2243e-05;0.0001053;7.438e-05;-7.4246e-06;0.0086378;-0.029572;-0.017752
0.28;1.7432e-05;1.384e-05;0.00011575;8.2364e-05;0.0014818;0.0058281;-0.035211;-0.0246
0.285;1.85e-05;1.5503e-05;0.0001252;8.9601e-05;0.0012947;-0.00057262;-0.045201;-0.035171
0.29;1.9577e-05;1.7043e-05;0.00013335;9.5799e-05;-0.00049532;-0.0092747;-0.058837;-0.04787
0.295;2.0594e-05;1.8248e-05;0.00013984;0.00010066;-0.0043481;-0.017473;-0.073849;-0.059367
0.3;2.1428e-05;1.896e-05;0.00014432;0.00010395;-0.010324;-0.022032;-0.087066;-0.06571
0.305;2.1922e-05;1.9131e-05;0.00014653;0.00010562;-0.016784;-0.021322;-0.095281;-0.06478
0.31;2.1951e-05;1.8833e-05;0.00014633;0.00010575;-0.020499;-0.016106;-0.096175;-0.057644
0.315;2.149e-05;1.8221e-05;0.00014382;0.00010456;-0.018731;-0.0091127;-0.089331;-0.048077
0.32;2.0651e-05;1.7455e-05;0.00013924;0.00010227;-0.011508000000000001;-0.0031304;-0.076572;-0.040387
0.325;1.9643e-05;1.6657e-05;0.00013293;9.9008e-05;-0.0019947;0.00049223;-0.06137;-0.037185
0.33;1.867e-05;1.588e-05;0.00012525;9.4794e-05;0.0048132;0.0012856;-0.048341;-0.038877
0.335;1.7827e-05;1.5106e-05;0.00011646;8.9542e-05;0.0055659;-0.001084;-0.041022;-0.044126
0.34;1.706e-05;1.4234e-05;0.00010665;8.3104e-05;0.00055754;-0.0066798;-0.039836;-0.050771
0.345;1.6202e-05;1.3097e-05;9.5811e-05;7.5323e-05;-0.0077673;-0.014504;-0.042598;-0.056672
0.35;1.504e-05;1.1505e-05;8.3865e-05;6.6083e-05;-0.016668;-0.022004;-0.045977;-0.060058
0.355;1.3369e-05;9.3232e-06;7.0757e-05;5.5356e-05;-0.023991;-0.025119;-0.047082;-0.058986
0.36;1.1049e-05;6.5753e-06;5.6505e-05;4.3246e-05;-0.02792;-0.020245;-0.044372;-0.051575
0.365;8.0486e-06;3.4799e-06;4.1228e-05;3.002e-05;-0.026582;-0.0075857;-0.037694;-0.037819
0.37;4.4882e-06;3.9399e-07;2.5141e-05;1.607e-05;-0.018251;0.0083337;-0.027146;-0.020101
0.375;6.5164e-07;-2.3244e-06;8.5472e-06;1.8403e-06;-0.0038691;0.021097;-0.013391;-0.0022597
0.38;-3.0882e-06;-4.4579e-06;-8.1966e-06;-1.2269e-05;0.011613;0.02575;0.0013913;0.01191
0.385;-6.4086e-06;-6.0037e-06;-2.4747e-05;-2.5977e-05;0.02199;0.021305;0.014072;0.020222
0.39;-9.1637e-06;-7.1501e-06;-4.0856e-05;-3.9149e-05;0.023278;0.010672;0.021365;0.022727
0.395;-1.1425e-05;-8.1847e-06;-5.6424e-05;-5.177e-05;0.016297;-0.0017328;0.021867;0.021313
0.4;-1.3408e-05;-9.3928e-06;-7.1504e-05;-6.3889e-05;0.0058577;-0.012162;0.017192;0.018892
0.405;-1.5355e-05;-1.098e-05;-8.6233e-05;-7.554e-05;-0.0028426;-0.018166;0.010945;0.018505
0.41;-1.7422e-05;-1.3025e-05;-0.00010073;-8.6682e-05;-0.0068998;-0.018568;0.007151;0.022206
0.415;-1.9651e-05;-1.5461e-05;-0.00011504;-9.7158e-05;-0.0060458;-0.012694;0.0089238;0.031074
0.42;-2.1975e-05;-1.8068e-05;-0.000129;-0.00010669;-0.0015761;-0.00098944;0.01761;0.044741
0.425;-2.4254e-05;-2.0521e-05;-0.00014234;-0.0001149;0.0051642;0.013269;0.032789;0.060096
0.43;-2.6307e-05;-2.2492e-05;-0.00015462;-0.00012146;0.01299;0.025326;0.052198;0.072658
0.435;-2.7949e-05;-2.3757e-05;-0.00016535;-0.00012613;0.019815;0.031244;0.071398;0.078517
0.44;-2.905e-05;-2.4261e-05;-0.00017412;-0.00012887;0.023518;0.029605;0.085696;0.075894
0.445;-2.9576e-05;-2.4118e-05;-0.00018067;-0.00012983;0.022444;0.022211;0.091589;0.066393
0.45;-2.9617e-05;-2.3541e-05;-0.00018497;-0.00012929;0.016428;0.012508;0.088171;0.054021
0.455;-2.9355e-05;-2.2763e-05;-0.0001872;-0.00012753;0.0078638;0.0035641;0.078258;0.043076
0.46;-2.8995e-05;-2.1979e-05;-0.00018762;-0.00012478;-8.0538e-05;-0.0030975;0.066609;0.036018
0.465;-2.8694e-05;-2.1311e-05;-0.00018647;-0.00012116;-0.0046279;-0.0062654;0.058323;0.03364
0.47;-2.8519e-05;-2.0773e-05;-0.0001839;-0.00011667;-0.0055657;-0.0040632;0.055502;0.036176
0.475;-2.8472e-05;-2.0237e-05;-0.00017993;-0.0001112;-0.0045662;0.0038097;0.056476;0.042426
0.48;-2.8497e-05;-1.9475e-05;-0.00017451;-0.00010458;-0.0012807;0.0143;0.0594;0.049396
0.485;-2.8464e-05;-1.8256e-05;-0.00016756;-9.6669e-05;0.005929;0.022201;0.063058;0.053528
0.49;-2.8138e-05;-1.6471e-05;-0.00015899;-8.7439e-05;0.017465;0.023256;0.066714;0.052225
0.495;-2.721e-05;-1.4182e-05;-0.00014871;-7.6994e-05;0.030723;0.017028;0.069707;0.045107
0.5;-2.539e-05;-1.1591e-05;-0.00013667;-6.5557e-05;0.040656;0.0070747;0.071204;0.034217
0.505;-2.2534e-05;-8.934e-06;-0.00012287;-5.3406e-05;0.042324;-0.0017134;0.07014;0.022885
0.51;-1.8729e-05;-6.3745e-06;-0.00010737;-4.0792e-05;0.033617;-0.0061404;0.065178;0.014179
0.515;-1.4285e-05;-3.9681e-06;-9.0357e-05;-2.788e-05;0.017479;-0.0061326;0.056342;0.0096101
0.52;-9.6196e-06;-1.6777e-06;-7.2071e-05;-1.4729e-05;0.00026743;-0.0031512;0.045393;0.009491
0.525;-5.1041e-06;5.9591e-07;-5.2783e-05;-1.2914e-06;-0.012305;0.0017937;0.034737;0.013404
0.53;-9.64e-07;2.9919e-06;-3.2728e-05;1.2559e-05;-0.017754;0.0079927;0.026564;0.019642
0.535;2.751e-06;5.6656e-06;-1.2057e-05;2.6974e-05;-0.016291;0.014224;0.022796;0.025492
0.54;6.1383e-06;8.7363e-06;9.2012e-06;4.2049e-05;-0.0099396;0.017563;0.024053;0.027337
0.545;9.3801e-06;1.2211e-05;3.1118e-05;5.7741e-05;-0.001709;0.014784;0.02867;0.022162
0.55;1.2673e-05;1.5937e-05;5.3812e-05;7.3834e-05;0.0058004;0.0053642;0.033514;0.0098621
0.555;1.6165e-05;1.9625e-05;7.7355e-05;8.9959e-05;0.010173;-0.0083672;0.034367;-0.0072747
0.56;1.9905e-05;2.2931e-05;0.00010167;0.00010567;0.0096277;-0.022282;0.027215;-0.025919
0.565;2.3813e-05;2.5556e-05;0.00012644;0.00012052;0.0039041;-0.03215;0.010035;-0.042962
0.57;2.7702e-05;2.7338e-05;0.00015114;0.00013413;-0.0054282;-0.035361;-0.01592;-0.056243
0.575;3.1331e-05;2.8288e-05;0.00017507;0.00014623;-0.015391;-0.03125;-0.045968;-0.064294
0.58;3.4476e-05;2.8588e-05;0.0001975;0.0001567;-0.023256;-0.020736;-0.074059;-0.06655
0.585;3.6993e-05;2.8553e-05;0.00021782;0.00016553;-0.02714;-0.0061015;-0.094778;-0.063996
0.59;3.8843e-05;2.8555e-05;0.00023564;0.00017283;-0.026185;0.0090841;-0.10527;-0.059192
0.595;4.0109e-05;2.8926e-05;0.00025081;0.0001787;-0.020513;0.020455;-0.10628;-0.055374
0.6;4.0988e-05;2.9851e-05;0.0002634;0.00018318;-0.010565;0.023932;-0.10086;-0.055255
0.605;4.1759e-05;3.1299e-05;0.00027356;0.00018622;0.0020187;0.017932;-0.093306;-0.059502
0.61;4.2731e-05;3.3029e-05;0.00028146;0.0001877;0.014012;0.004656;-0.087313;-0.066377
0.615;4.4138e-05;3.4679e-05;0.00028721;0.00018743;0.020841;-0.01105;-0.085122;-0.072885
0.62;4.6023e-05;3.5888e-05;0.00029078;0.0001853;0.017382;-0.024255;-0.088236;-0.076044
0.625;4.8151e-05;3.639e-05;0.00029206;0.00018129;0.0022524;-0.032358;-0.095974;-0.074081
0.63;5.0062e-05;3.6052e-05;0.00029082;0.00017553;-0.019725;-0.034879;-0.10492;-0.066483
0.635;5.1224e-05;3.4875e-05;0.00028689;0.00016826;-0.040141;-0.032209;-0.11087;-0.054111
0.64;5.1239e-05;3.2979e-05;0.00028018;0.00015982;-0.051697;-0.025365;-0.11092;-0.039797
0.645;4.9966e-05;3.0566e-05;0.00027079;0.00015053;-0.051392;-0.015959;-0.10426;-0.027496
0.65;4.754e-05;2.7873e-05;0.00025895;0.00014065;-0.040899;-0.006454;-0.091718;-0.020704
0.655;4.428e-05;2.5097e-05;0.000245;0.00013023;-0.025834;-0.00020619;-0.076244;-0.02135
0.66;4.0551e-05;2.2322e-05;0.00022934;0.00011919;-0.011665;0.00031781;-0.060994;-0.028758
0.665;3.6659e-05;1.9493e-05;0.00021232;0.00010729;-0.0013617;-0.0045726;-0.048266;-0.03995
0.67;3.2786e-05;1.6456e-05;0.00019418;9.425e-05;0.0029262;-0.012096;-0.041121;-0.051584
0.675;2.8964e-05;1.3046e-05;0.000175;7.9809e-05;0.0012057;-0.017707;-0.041281;-0.060263
0.68;2.5107e-05;9.2036e-06;0.00015472;6.3833e-05;-0.0040551;-0.016972;-0.047749;-0.062586
0.685;2.107e-05;5.0385e-06;0.00013311;4.6361e-05;-0.010292;-0.0088675;-0.058217;-0.05709
0.69;1.6715e-05;8.1009e-07;0.0001099;2.7615e-05;-0.015171;0.0037875;-0.069041;-0.044856
0.695;1.1963e-05;-3.1543e-06;8.4895e-05;7.9636e-06;-0.016613;0.017339;-0.07556;-0.027622
0.7;6.8318e-06;-6.5467e-06;5.8019e-05;-1.2127e-05;-0.013783;0.028432;-0.073867;-0.0075042
0.705;1.4404e-06;-9.167e-06;2.9445e-05;-3.216e-05;-0.0070218;0.033378;-0.062036;0.012129
0.71;-4.004e-06;-1.0995e-05;-4.1055e-07;-5.1684e-05;0.0027754;0.030021;-0.04049;0.028534
0.715;-9.2451e-06;-1.2216e-05;-3.0933e-05;-7.0348e-05;0.013479;0.018637;-0.012866;0.04037
0.72;-1.4032e-05;-1.3184e-05;-6.142e-05;-8.7919e-05;0.022848;0.0016367;0.015648;0.047067
0.725;-1.8166e-05;-1.4327e-05;-9.1203e-05;-0.00010428;0.02943;-0.015729;0.040691;0.049874
0.73;-2.1543e-05;-1.601e-05;-0.00011974;-0.00011937;0.0312;-0.027434;0.059081;0.05148
0.735;-2.4196e-05;-1.8405e-05;-0.00014666;-0.00013313;0.026649;-0.029688;0.070223;0.054853
0.74;-2.6316e-05;-2.1453e-05;-0.00017175;-0.00014544;0.016133;-0.022531;0.076155;0.061676
0.745;-2.8205e-05;-2.4902e-05;-0.00019489;-0.00015609;0.0023187;-0.0095173;0.080136;0.070875
0.75;-3.0193e-05;-2.8404e-05;-0.00021596;-0.00016486;-0.010298;0.0052574;0.085233;0.079751
0.755;-3.2524e-05;-3.1605e-05;-0.0002348;-0.00017156;-0.01716;0.018794;0.093327;0.085023
0.76;-3.5269e-05;-3.4209e-05;-0.00025116;-0.00017616;-0.016018;0.028956;0.10451;0.083707
0.765;-3.8321e-05;-3.6021e-05;-0.00026477;-0.00017878;-0.0085291;0.034542;0.11641;0.075223
0.77;-4.1452e-05;-3.6967e-05;-0.00027534;-0.00017968;0.0021795;0.03468;0.12626;0.061526
0.775;-4.4389e-05;-3.7121e-05;-0.00028268;-0.00017925;0.013378;0.028731;0.132;0.045447
0.78;-4.687e-05;-3.6684e-05;-0.00028672;-0.00017786;0.023115;0.018518;0.13234;0.030694
0.785;-4.868e-05;-3.5904e-05;-0.00028751;-0.00017582;0.0305;0.0089512;0.12721;0.021672
0.79;-4.9676e-05;-3.4952e-05;-0.00028526;-0.00017324;0.034702;0.0048167;0.11705;0.021258
0.795;-4.9802e-05;-3.3837e-05;-0.00028025;-0.00017002;0.034923;0.0081144;0.10289;0.029867
0.8;-4.9099e-05;-3.2407e-05;-0.00027287;-0.00016586;0.031379;0.017118;0.086991;0.04576
0.805;-4.7681e-05;-3.0423e-05;-0.00026349;-0.00016031;0.025807;0.027198;0.072695;0.065562
0.81;-4.5688e-05;-2.7677e-05;-0.00025242;-0.00015286;0.02022;0.033729;0.062706;0.085502
0.815;-4.3238e-05;-2.4091e-05;-0.00023984;-0.00014308;0.01636;0.033553;0.058443;0.10146
0.82;-4.0389e-05;-1.9773e-05;-0.00022577;-0.00013067;0.015534;0.025073;0.060246;0.10923
0.825;-3.7124e-05;-1.5032e-05;-0.00021011;-0.00011557;0.017707;0.0087962;0.066891;0.10593
0.83;-3.337e-05;-1.0327e-05;-0.00019267;-9.7997e-05;0.021393;-0.01172;0.075757;0.091657
0.835;-2.9043e-05;-6.1439e-06;-0.00017324;-7.8404e-05;0.024454;-0.029996;0.083819;0.07009
0.84;-2.4096e-05;-2.8278e-06;-0.00015164;-5.735e-05;0.025183;-0.039439;0.088786;0.046887
0.845;-1.8561e-05;-4.6428e-07;-0.00012783;-3.5372e-05;0.021951;-0.036836;0.088736;0.026976
0.85;-1.2576e-05;1.1358e-06;-0.00010188;-1.2903e-05;0.013997;-0.024277;0.082814;0.012261
0.855;-6.3945e-06;2.3419e-06;-7.3992e-05;9.7423e-06;0.0017155;-0.0072498;0.071387;0.0017845
0.86;-3.5967e-07;3.569e-06;-4.4525e-05;3.2325e-05;-0.013403;0.0089435;0.055427;-0.006753
0.865;5.1604e-06;5.1727e-06;-1.3903e-05;5.4623e-05;-0.027792;0.021203;0.03692;-0.016044
0.87;9.868e-06;7.3967e-06;1.7402e-05;7.6362e-05;-0.037244;0.028452;0.017737;-0.028633
0.875;1.3629e-05;1.0345e-05;4.892e-05;9.7157e-05;-0.03851;0.029534;-0.00074216;-0.046807
0.88;1.6526e-05;1.3957e-05;8.0209e-05;0.00011649;-0.030663;0.023548;-0.017566;-0.070349
0.885;1.8838e-05;1.8006e-05;0.00011087;0.00013375;-0.016154;0.011476;-0.03274;-0.094886
0.89;2.0946e-05;2.2153e-05;0.00014053;0.00014841;-0.00020412;-0.0036153;-0.04752;-0.11364
0.895;2.3201e-05;2.6041e-05;0.0001688;0.00016015;0.012042;-0.017146;-0.063405;-0.12041
0.9;2.5831e-05;2.9401e-05;0.00019526;0.00016897;0.017936;-0.025102;-0.080976;-0.11299
0.905;2.8896e-05;3.2123e-05;0.00021946;0.0001752;0.016951;-0.025932;-0.10021;-0.094078
0.91;3.23e-05;3.4261e-05;0.00024091;0.00017938;0.010195;-0.020925;-0.12015;-0.069361
0.915;3.5828e-05;3.5968e-05;0.00025912;0.00018214;-0.00030774;-0.013509;-0.13891;-0.044993
0.92;3.9203e-05;3.7401e-05;0.00027367;0.00018401;-0.011891;-0.008318;-0.15379;-0.026577
0.925;4.2156e-05;3.8615e-05;0.00028426;0.0001853;-0.021889;-0.0093011;-0.16232;-0.018403
0.93;4.4485e-05;3.949e-05;0.0002908;0.00018609;-0.028071;-0.017695;-0.16296;-0.022505
0.935;4.6107e-05;3.9744e-05;0.00029336;0.00018612;-0.028543;-0.031928;-0.15489;-0.038598
0.94;4.7075e-05;3.9007e-05;0.00029224;0.00018487;-0.023782;-0.047453;-0.13932;-0.063147
0.945;4.7533e-05;3.6959e-05;0.00028789;0.00018171;-0.017019;-0.057394;-0.11955;-0.089135
0.95;4.7622e-05;3.35e-05;0.00028079;0.00017609;-0.01242;-0.055613;-0.099654;-0.1086
0.955;4.7394e-05;2.8846e-05;0.00027141;0.00016766;-0.012966;-0.039973;-0.083255;-0.11582
0.96;4.6772e-05;2.3519e-05;0.00026009;0.00015642;-0.018531;-0.013992;-0.072196;-0.10964
0.965;4.559e-05;1.8193e-05;0.00024703;0.00014263;-0.026286;0.014103;-0.066427;-0.094172
0.97;4.3669e-05;1.3485e-05;0.00023234;0.0001267;-0.032799;0.035394;-0.064628;-0.07651
0.975;4.0885e-05;9.7809e-06;0.00021602;0.00010903;-0.036255;0.04499;-0.065243;-0.062738
0.98;3.7189e-05;7.1724e-06;0.00019805;8.9882e-05;-0.036771;0.042706;-0.067312;-0.055881
0.985;3.2599e-05;5.4879e-06;0.00017835;6.9342e-05;-0.034695;0.031255;-0.070155;-0.05527
0.99;2.7216e-05;4.3772e-06;0.00015688;4.7406e-05;-0.028843;0.014666;-0.072097;-0.056428
0.995;2.1244e-05;3.4113e-06;0.00013362;2.4105e-05;-0.018258;-0.0030861;-0.07119;-0.052744
1.0;1.4979e-05;2.1799e-06;0.00010863;-3.2737e-07;-0.005125;-0.018176;-0.067204;-0.037913
1.005;8.7432e-06;3.7558e-07;8.2041e-05;-2.5322e-05;0.0073718;-0.027685;-0.06035;-0.0071133
1.01;2.7883e-06;-2.1407e-06;5.4048e-05;-5.0014e-05;0.015167;-0.029316;-0.052152;0.031335
1.015;-2.7432e-06;-5.3197e-06;2.4872e-05;-7.3418e-05;0.018722;-0.023737;-0.042523;0.071642
1.02;-7.7866e-06;-8.9548e-06;-5.2275e-06;-9.4588e-05;0.020329;-0.012779;-0.031398;0.10714
1.025;-1.2305e-05;-1.2738e-05;-3.5956e-05;-0.0001128;0.021647;0.00091739;-0.018906;0.12974
1.03;-1.6258e-05;-1.635e-05;-6.6971e-05;-0.00012768;0.023601;0.012841;-0.0040087;0.13632
1.035;-1.9606e-05;-1.9565e-05;-9.7859e-05;-0.00013926;0.024831;0.018945;0.01416;0.1283
1.04;-2.2356e-05;-2.232e-05;-0.00012812;-0.00014785;0.023017;0.01786;0.0357;0.111
1.045;-2.4608e-05;-2.4712e-05;-0.0001572;-0.00015392;0.016797;0.011207;0.05941;0.090718
1.05;-2.6558e-05;-2.692e-05;-0.00018449;-0.00015794;0.0074854;0.0034664;0.083542;0.072824
1.055;-2.8429e-05;-2.9084e-05;-0.0002094;-0.00016029;-0.0012481;0.00011694;0.10684;0.060495
1.06;-3.039e-05;-3.1186e-05;-0.00023136;-0.00016121;-0.0059957;0.0047319;0.12835;0.054154
1.065;-3.2491e-05;-3.3009e-05;-0.00024989;-0.0001608;-0.0052666;0.017537;0.14742;0.052778
1.07;-3.4658e-05;-3.4168e-05;-0.00026453;-0.00015903;1.6269e-05;0.035621;0.16314;0.055537
1.075;-3.6733e-05;-3.4212e-05;-0.00027495;-0.00015579;0.0073893;0.053543;0.17395;0.061854
1.08;-3.8534e-05;-3.278e-05;-0.00028098;-0.0001509;0.014436;0.064582;0.17839;0.070465
1.085;-3.9914e-05;-2.9754e-05;-0.00028258;-0.00014414;0.01934;0.063049;0.17551;0.078725
1.09;-4.0792e-05;-2.5356e-05;-0.00027992;-0.00013537;0.020778;0.046776;0.16505;0.082649
1.095;-4.1177e-05;-2.0136e-05;-0.00027335;-0.00012457;0.01871;0.019027;0.14838;0.07906
1.1;-4.115e-05;-1.4823e-05;-0.00026332;-0.00011193;0.014302;-0.011636;0.12793;0.068606
1.105;-4.0823e-05;-1.0091e-05;-0.00025037;-9.7733e-05;0.0096143;-0.034825;0.106;0.056282
1.11;-4.0274e-05;-6.3434e-06;-0.00023502;-8.2231e-05;0.0082089;-0.044045;0.085323;0.047848
