T;DXP (m);DZP (m);DXU (m);DZU (m);AXP (m/s^2);AZP (m/s^2);AXU (m/s^2);AZU (m/s^2)
0.005;2.4034e-08;8.6579e-08;2.2929e-08;9.1311e-08;0.0019069;0.0068691;0.0018191;0.0072445
0.01;8.5558e-08;3.6824e-07;8.917e-08;4.0962e-07;0.0011253;0.0088165;0.0016723;0.010984
0.015;1.3015e-07;7.9983e-07;1.6438e-07;9.7008e-07;-0.0024784;0.0031888;-0.00095148;0.0083947
0.02;8.4192e-08;1.2256e-06;1.7643e-07;1.6893e-06;-0.0047773;-0.0036554;-0.0040998;0.0043151
0.025;-8.5652e-08;1.4885e-06;5.0865e-08;2.45e-06;-0.0051419;-0.0093755;-0.0069131;-0.00099615
0.03;-3.7514e-07;1.4847e-06;-2.6413e-07;3.1144e-06;-0.0044331;-0.011992;-0.008251;-0.006706
0.035;-7.7196e-07;1.18e-06;-8.0415e-07;3.5452e-06;-0.0041475;-0.012083;-0.0097436;-0.011977
0.04;-1.2793e-06;6.0505e-07;-1.63e-06;3.6331e-06;-0.004692;-0.0095494;-0.013111;-0.01548
0.045;-1.9078e-06;-1.4672e-07;-2.8203e-06;3.3279e-06;-0.0050062;-0.0046091;-0.016054;-0.015976
0.05;-2.6512e-06;-9.4447e-07;-4.4195e-06;2.6517e-06;-0.0041901;0.00093164;-0.016678;-0.013719
0.055;-3.4703e-06;-1.6677e-06;-6.4261e-06;1.6766e-06;-0.0018702;0.0050421;-0.015909;-0.010196
0.06;-4.3039e-06;-2.2463e-06;-8.8134e-06;4.8773e-07;0.00071101;0.0065451;-0.014552;-0.0068961
0.065;-5.1008e-06;-2.6722e-06;-1.1545e-05;-8.4896e-07;0.0022257;0.0056741;-0.013006;-0.0049244
0.07;-5.8397e-06;-2.9926e-06;-1.4599e-05;-2.3139e-06;0.0024308;0.0027762;-0.012714;-0.0053202
0.075;-6.5417e-06;-3.3007e-06;-1.7997e-05;-3.9614e-06;0.00052845;-0.0017808;-0.01488;-0.0092706
0.08;-7.2741e-06;-3.7199e-06;-2.1818e-05;-5.9405e-06;-0.0029564;-0.007103;-0.018874;-0.017226
0.085;-8.1169e-06;-4.3768e-06;-2.6171e-05;-8.4848e-06;-0.0058853;-0.01192;-0.02378;-0.027992
0.09;-9.1171e-06;-5.3672e-06;-3.117e-05;-1.1866e-05;-0.0067174;-0.014779;-0.027837;-0.038973
0.095;-1.0265e-05;-6.7148e-06;-3.6872e-05;-1.6315e-05;-0.0050928;-0.013811;-0.028465;-0.046471
0.1;-1.1498e-05;-8.3375e-06;-4.3245e-05;-2.1933e-05;-0.0017704;-0.0082301;-0.025211;-0.047024
0.105;-1.2721e-05;-1.006e-05;-5.0177e-05;-2.8631e-05;0.0026191;0.0002215;-0.019453;-0.03955
0.11;-1.3825e-05;-1.1675e-05;-5.7509e-05;-3.6148e-05;0.0068534;0.0084615;-0.01264;-0.025904
0.115;-1.4732e-05;-1.3008e-05;-6.5065e-05;-4.4111e-05;0.0090088;0.014008;-0.0053001;-0.0097735
0.12;-1.5415e-05;-1.397e-05;-7.2657e-05;-5.2137e-05;0.0088198;0.015731;0.0025101;0.0046975
0.125;-1.5897e-05;-1.4564e-05;-8.0096e-05;-5.9924e-05;0.0073318;0.013765;0.0096761;0.01453
0.13;-1.6223e-05;-1.4869e-05;-8.7225e-05;-6.7297e-05;0.0051248;0.0093608;0.015111;0.018524
0.135;-1.6455e-05;-1.5004e-05;-9.3936e-05;-7.4229e-05;0.0024275;0.0041804;0.018388;0.016884
0.14;-1.666e-05;-1.5093e-05;-0.00010018;-8.0801e-05;-0.0003325;-0.00040833;0.018711;0.011824
0.145;-1.6899e-05;-1.5233e-05;-0.00010599;-8.7145e-05;-0.0023699;-0.0037433;0.016827;0.0065037
0.15;-1.7209e-05;-1.549e-05;-0.00011139;-9.3368e-05;-0.0032842;-0.0056394;0.015369;0.0031159
0.155;-1.7601e-05;-1.5896e-05;-0.0001164;-9.9509e-05;-0.00333;-0.0062232;0.015956;0.0034086
0.16;-1.8066e-05;-1.6455e-05;-0.00012097;-0.0001055;-0.0024379;-0.0060872;0.018813;0.0089259
0.165;-1.8565e-05;-1.7161e-05;-0.00012501;-0.00011113;-0.00033574;-0.0056669;0.024078;0.019504
0.17;-1.9033e-05;-1.7995e-05;-0.00012835;-0.0001161;0.0028166;-0.0045258;0.031696;0.033077
0.175;-1.9395e-05;-1.8903e-05;-0.00013079;-0.00012007;0.005661;-0.0014877;0.040181;0.047049
0.18;-1.9603e-05;-1.9776e-05;-0.00013214;-0.00012272;0.0067118;0.0043335;0.047522;0.058794
0.185;-1.9648e-05;-2.0441e-05;-0.00013223;-0.00012381;0.0062417;0.012285;0.052667;0.065858
0.19;-1.9547e-05;-2.0709e-05;-0.00013098;-0.00012325;0.0054997;0.019499;0.054542;0.066587
0.195;-1.9305e-05;-2.0458e-05;-0.0001284;-0.0001211;0.0057651;0.022045;0.052418;0.060587
0.2;-1.8894e-05;-1.9706e-05;-0.00012457;-0.00011757;0.0077791;0.018096;0.047323;0.049289
0.205;-1.8252e-05;-1.8606e-05;-0.00011963;-0.00011298;0.010655;0.0097339;0.041304;0.036105
0.21;-1.7319e-05;-1.7369e-05;-0.00011373;-0.00010762;0.012643;0.0011766;0.036361;0.025259
0.215;-1.6071e-05;-1.6176e-05;-0.00010694;-0.0001017;0.012602;-0.0046521;0.033709;0.019318
0.22;-1.4538e-05;-1.5134e-05;-9.9322e-05;-9.5316e-05;0.010134;-0.0074937;0.03313;0.017746
0.225;-1.2805e-05;-1.4287e-05;-9.0866e-05;-8.8479e-05;0.0059587;-0.0080604;0.03374;0.018618
0.23;-1.0978e-05;-1.3621e-05;-8.1557e-05;-8.1154e-05;0.0014648;-0.006475;0.034517;0.020415
0.235;-9.1592e-06;-1.3063e-05;-7.1385e-05;-7.3299e-05;-0.002035;-0.0022079;0.034526;0.022029
0.24;-7.4071e-06;-1.2467e-05;-6.0365e-05;-6.4881e-05;-0.0033521;0.0052711;0.033288;0.023068
0.245;-5.7238e-06;-1.1621e-05;-4.8551e-05;-5.5876e-05;-0.0021655;0.01473;0.030312;0.02378
0.25;-4.0557e-06;-1.0305e-05;-3.604e-05;-4.627e-05;0.00094159;0.022855;0.025449;0.024356
0.255;-2.3118e-06;-8.3763e-06;-2.2965e-05;-3.6056e-05;0.0051235;0.026253;0.019588;0.02436
0.26;-3.8726e-07;-5.828e-06;-9.4672e-06;-2.5254e-05;0.009327;0.023304;0.014315;0.022622
0.265;1.801e-06;-2.8039e-06;4.343e-06;-1.3942e-05;0.011785;0.014789;0.010638;0.018155
0.27;4.269e-06;4.4521e-07;1.8391e-05;-2.2665e-06;0.010614;0.003226;0.0083489;0.010987
0.275;6.9337e-06;3.6307e-06;3.2621e-05;9.5734e-06;0.0051433;-0.0083257;0.0062744;0.002161
0.28;9.6153e-06;6.4924e-06;4.6961e-05;2.1353e-05;-0.0037777;-0.017596;0.0025341;-0.0069615
0.285;1.2077e-05;8.8443e-06;6.1278e-05;3.2858e-05;-0.013778;-0.023205;-0.0044212;-0.015044
0.29;1.4098e-05;1.0606e-05;7.5354e-05;4.3914e-05;-0.021544;-0.024062;-0.014789;-0.020929
0.295;1.5544e-05;1.182e-05;8.8899e-05;5.4409e-05;-0.024512;-0.019734;-0.027709;-0.023943
0.3;1.6407e-05;1.2645e-05;0.00010158;6.4305e-05;-0.022075;-0.011437;-0.041629;-0.023922
0.305;1.6801e-05;1.3297e-05;0.00011306;7.3635e-05;-0.015514;-0.0023613;-0.054247;-0.021424
0.31;1.6914e-05;1.3969e-05;0.00012307;8.2475e-05;-0.00697;0.0039978;-0.062685;-0.017753
0.315;1.6957e-05;1.4766e-05;0.0001315;9.0908e-05;0.0014253;0.0059168;-0.064663;-0.014823
0.32;1.7118e-05;1.5691e-05;0.00013837;9.8976e-05;0.0079892;0.0044231;-0.0599;-0.014409
0.325;1.7524e-05;1.6698e-05;0.00014386;0.00010664;0.011626;0.0021081;-0.050543;-0.017594
0.33;1.8215e-05;1.7736e-05;0.00014821;0.00011378;0.011193;0.00037038;-0.040998;-0.024985
0.335;1.9127e-05;1.8758e-05;0.0001516;0.00012015;0.0065049;-0.0016104;-0.035588;-0.036312
0.34;2.0113e-05;1.9692e-05;0.00015408;0.00012543;-0.00063453;-0.0054729;-0.036327;-0.049961
0.345;2.0997e-05;2.0413e-05;0.00015558;0.00012931;-0.007438;-0.011488;-0.042922;-0.063394
0.35;2.1645e-05;2.0768e-05;0.00015588;0.00013146;-0.011501;-0.017825;-0.053374;-0.074133
0.355;2.1999e-05;2.0634e-05;0.00015469;0.00013169;-0.012035;-0.021356;-0.064808;-0.079838
0.36;2.2074e-05;1.9986e-05;0.00015177;0.00012994;-0.010275;-0.01975;-0.074139;-0.078551
0.365;2.1913e-05;1.8923e-05;0.00014695;0.00012633;-0.0086022;-0.013482;-0.078489;-0.070052
0.37;2.1541e-05;1.763e-05;0.0001402;0.00012115;-0.00828;-0.0049808;-0.075065;-0.056105
0.375;2.0952e-05;1.6315e-05;0.00013173;0.00011477;-0.009086;0.0032872;-0.062718;-0.039932
0.38;2.0121e-05;1.5162e-05;0.00012193;0.00010757;-0.010283;0.0096836;-0.043612;-0.02543
0.385;1.9025e-05;1.4296e-05;0.00011131;9.985e-05;-0.010868;0.013345;-0.022457;-0.015726
0.39;1.7663e-05;1.3767e-05;0.00010035;9.1787e-05;-0.010424;0.013545;-0.0049155;-0.01204
0.395;1.6062e-05;1.3526e-05;8.9382e-05;8.3403e-05;-0.0087545;0.0095511;0.0050779;-0.01354
0.4;1.428e-05;1.3423e-05;7.8565e-05;7.4625e-05;-0.0057073;0.0014784;0.0067475;-0.017997
0.405;1.2403e-05;1.3226e-05;6.7854e-05;6.5336e-05;-0.0018825;-0.0089237;0.00171;-0.022958
0.41;1.052e-05;1.268e-05;5.7075e-05;5.5421e-05;0.0013461;-0.019037;-0.0071302;-0.02704
0.415;8.6831e-06;1.1571e-05;4.6001e-05;4.4803e-05;0.0024412;-0.026069;-0.016436;-0.029221
0.42;6.8808e-06;9.7855e-06;3.4432e-05;3.3471e-05;0.00030608;-0.028041;-0.023266;-0.02796
0.425;5.0215e-06;7.3378e-06;2.2252e-05;2.1513e-05;-0.0048481;-0.02496;-0.025532;-0.022085
0.43;2.96e-06;4.3578e-06;9.4718e-06;9.1413e-06;-0.011325;-0.017645;-0.022607;-0.011121
0.435;5.4342e-07;1.0679e-06;-3.791e-06;-3.3235e-06;-0.017092;-0.0071575;-0.015969;0.0037051
0.44;-2.3334e-06;-2.2526e-06;-1.735e-05;-1.5504e-05;-0.01975;0.0047064;-0.007768;0.019068
0.445;-5.6764e-06;-5.3216e-06;-3.1011e-05;-2.7056e-05;-0.017565;0.015426;-0.00029351;0.031185
0.45;-9.3645e-06;-7.922e-06;-4.4617e-05;-3.7753e-05;-0.010069;0.022079;0.0046605;0.037281
0.455;-1.315e-05;-9.965e-06;-5.8076e-05;-4.753e-05;0.0022144;0.022561;0.0070563;0.036361
0.46;-1.6701e-05;-1.152e-05;-7.1349e-05;-5.6493e-05;0.016648;0.016473;0.007874;0.028755
0.465;-1.9674e-05;-1.2793e-05;-8.4411e-05;-6.4894e-05;0.029474;0.0061357;0.0089893;0.016198
0.47;-2.1829e-05;-1.4038e-05;-9.7221e-05;-7.3067e-05;0.036089;-0.0038532;0.011183;0.0021355
0.475;-2.3121e-05;-1.5452e-05;-0.00010972;-8.1333e-05;0.032973;-0.0098041;0.013808;-0.0096608
0.48;-2.3731e-05;-1.7126e-05;-0.00012183;-8.9922e-05;0.021644;-0.010911;0.017337;-0.016148
0.485;-2.3978e-05;-1.9041e-05;-0.00013344;-9.8904e-05;0.0074382;-0.0084933;0.022374;-0.01538
0.49;-2.4176e-05;-2.1113e-05;-0.00014441;-0.00010817;-0.0036466;-0.0039977;0.02868;-0.0070372
0.495;-2.4519e-05;-2.3204e-05;-0.00015458;-0.00011742;-0.0078901;0.002421;0.035434;0.0075814
0.5;-2.5022e-05;-2.5123e-05;-0.00016379;-0.00012625;-0.0050542;0.011355;0.042012;0.026077
0.505;-2.5562e-05;-2.662e-05;-0.00017186;-0.00013419;0.0021446;0.022397;0.048291;0.045573
0.51;-2.5956e-05;-2.7423e-05;-0.00017866;-0.00014077;0.0096103;0.033148;0.054212;0.063244
0.515;-2.6044e-05;-2.7316e-05;-0.00018402;-0.00014561;0.01477;0.039633;0.060449;0.076206
0.52;-2.5735e-05;-2.6231e-05;-0.00018777;-0.00014846;0.017056;0.038686;0.067962;0.082152
0.525;-2.5007e-05;-2.4288e-05;-0.00018972;-0.00014929;0.016444;0.030006;0.076888;0.08041
0.53;-2.3915e-05;-2.1771e-05;-0.00018962;-0.0001482;0.012725;0.015883;0.08613;0.072365
0.535;-2.2582e-05;-1.9054e-05;-0.00018728;-0.00014544;0.0065501;0.00013077;0.093951;0.061724
0.54;-2.1171e-05;-1.651e-05;-0.00018253;-0.00014125;-0.00026767;-0.013986;0.098244;0.05264
0.545;-1.983e-05;-1.4442e-05;-0.00017535;-0.0001358;-0.0053654;-0.024089;0.097132;0.047988
0.55;-1.8633e-05;-1.3023e-05;-0.00016581;-0.00012914;-0.0062072;-0.027855;0.090513;0.048891
0.555;-1.7539e-05;-1.2254e-05;-0.00015415;-0.0001212;-0.0020535;-0.024204;0.079755;0.053931
0.56;-1.6406e-05;-1.1962e-05;-0.00014065;-0.00011183;0.00518;-0.014003;0.06723;0.060274
0.565;-1.506e-05;-1.1844e-05;-0.00012562;-0.00010088;0.011801;6.7529e-05;0.055575;0.065582
0.57;-1.3389e-05;-1.1548e-05;-0.00010931;-8.8256e-05;0.01432;0.014182;0.046593;0.0686
0.575;-1.1394e-05;-1.0764e-05;-9.1905e-05;-7.3916e-05;0.011626;0.024885;0.040724;0.068786
0.58;-9.1888e-06;-9.2924e-06;-7.3534e-05;-5.7899e-05;0.0051288;0.030163;0.03673;0.065375
0.585;-6.9428e-06;-7.0728e-06;-5.4294e-05;-4.0351e-05;-0.0018262;0.029694;0.032815;0.05716
0.59;-4.7916e-06;-4.1769e-06;-3.43e-05;-2.1543e-05;-0.0057799;0.024437;0.027523;0.043618
0.595;-2.774e-06;-7.7536e-07;-1.3711e-05;-1.8651e-06;-0.0049409;0.016026;0.020027;0.026035
0.6;-8.0751e-07;2.9027e-06;7.262e-06;1.8226e-05;0.000834;0.006102;0.010765;0.0070383
0.605;1.2935e-06;6.6144e-06;2.8379e-05;3.8276e-05;0.0099141;-0.0034176;0.00072223;-0.010432
0.61;3.7647e-06;1.0156e-05;4.9397e-05;5.7893e-05;0.019703;-0.010204;-0.0086509;-0.024131
0.615;6.8213e-06;1.3416e-05;7.0109e-05;7.6797e-05;0.027147;-0.012374;-0.015816;-0.033032
0.62;1.0571e-05;1.6403e-05;9.0363e-05;9.4827e-05;0.028357;-0.0094804;-0.020824;-0.036813
0.625;1.4941e-05;1.9231e-05;0.00011005;0.00011195;0.021295;-0.0032318;-0.024358;-0.035637
0.63;1.9676e-05;2.2064e-05;0.00012911;0.00012826;0.0078888;0.0036444;-0.026546;-0.029951
0.635;2.4421e-05;2.5053e-05;0.00014749;0.00014393;-0.0070095;0.0088153;-0.027332;-0.021099
0.64;2.8852e-05;2.8287e-05;0.00016519;0.00015918;-0.018198;0.010767;-0.02718;-0.012182
0.645;3.2775e-05;3.1771e-05;0.0001822;0.00017419;-0.022444;0.0093428;-0.027156;-0.0067851
0.65;3.6173e-05;3.5441e-05;0.00019853;0.00018903;-0.019645;0.0055178;-0.028257;-0.007055
0.655;3.9155e-05;3.9182e-05;0.00021411;0.00020362;-0.013597;0.0001445;-0.031776;-0.013156
0.66;4.1859e-05;4.2843e-05;0.00022882;0.00021775;-0.0086255;-0.006541;-0.037502;-0.023593
0.665;4.4369e-05;4.6238e-05;0.00024252;0.00023113;-0.0068666;-0.014746;-0.043182;-0.0365
0.67;4.6676e-05;4.9136e-05;0.00025509;0.00024341;-0.0093999;-0.024968;-0.04744;-0.0512
0.675;4.8676e-05;5.1269e-05;0.00026644;0.00025421;-0.015086;-0.036279;-0.049528;-0.066898
0.68;5.0225e-05;5.2379e-05;0.00027657;0.00026316;-0.02103;-0.045523;-0.049352;-0.0811
0.685;5.1194e-05;5.2301e-05;0.00028546;0.00026997;-0.025423;-0.049575;-0.048875;-0.091089
0.69;5.15e-05;5.1016e-05;0.00029311;0.00027444;-0.027578;-0.047025;-0.050761;-0.095577
0.695;5.1124e-05;4.8675e-05;0.00029941;0.00027653;-0.026986;-0.037425;-0.056676;-0.094465
0.7;5.0119e-05;4.5598e-05;0.00030417;0.00027633;-0.023385;-0.021544;-0.066693;-0.089162
0.705;4.8614e-05;4.2222e-05;0.00030712;0.00027398;-0.016626;-0.0023824;-0.078611;-0.082761
0.71;4.6814e-05;3.9022e-05;0.00030798;0.00026963;-0.0069813;0.016442;-0.088512;-0.077402
0.715;4.4964e-05;3.6414e-05;0.00030655;0.00026339;0.0029817;0.03102;-0.093924;-0.073802
0.72;4.327e-05;3.4656e-05;0.00030277;0.00025531;0.0095582;0.036983;-0.094598;-0.072781
0.725;4.1825e-05;3.376e-05;0.00029667;0.00024539;0.010373;0.032058;-0.091448;-0.074782
0.73;4.0569e-05;3.348e-05;0.00028833;0.00023354;0.0047681;0.017226;-0.086742;-0.079882
0.735;3.9312e-05;3.3371e-05;0.00027789;0.0002196;-0.00485;-0.0034893;-0.082516;-0.087341
0.74;3.7823e-05;3.2913e-05;0.00026541;0.00020337;-0.01365;-0.024437;-0.079481;-0.095188
0.745;3.5951e-05;3.1641e-05;0.00025098;0.0001847;-0.017089;-0.040774;-0.07715;-0.10097
0.75;3.37e-05;2.9245e-05;0.00023466;0.00016348;-0.013275;-0.049143;-0.074505;-0.10181
0.755;3.1234e-05;2.5632e-05;0.00021652;0.00013981;-0.0039153;-0.048204;-0.070464;-0.095444
0.76;2.88e-05;2.0935e-05;0.0001967;0.00011392;0.0064188;-0.038682;-0.064106;-0.081223
0.765;2.6594e-05;1.5474e-05;0.00017538;8.6283e-05;0.011918;-0.022392;-0.055613;-0.05943
0.77;2.4656e-05;9.698e-06;0.0001528;5.7501e-05;0.0095304;-0.0028016;-0.0452;-0.031779
0.775;2.2839e-05;4.067e-06;0.00012925;2.8291e-05;0.0002364;0.014398;-0.033091;-0.0024893
0.78;2.0872e-05;-1.0848e-06;0.00010502;-6.5919e-07;-0.012289;0.023987;-0.020318;0.02326
0.785;1.8462e-05;-5.6347e-06;8.0443e-05;-2.8802e-05;-0.023123;0.024214;-0.008271;0.041381
0.79;1.5407e-05;-9.6727e-06;5.5778e-05;-5.5813e-05;-0.028553;0.016769;0.0015909;0.049243
0.795;1.1655e-05;-1.3428e-05;3.1243e-05;-8.1626e-05;-0.027218;0.0058499;0.0087471;0.046709
0.8;7.3147e-06;-1.716e-05;6.9921e-06;-0.0001064;-0.019853;-0.0039643;0.014007;0.036561
0.805;2.6181e-06;-2.1066e-05;-1.6851e-05;-0.00013042;-0.0086906;-0.010064;0.01864;0.023467
0.81;-2.1563e-06;-2.5246e-05;-4.0175e-05;-0.00015398;0.0024826;-0.011753;0.022871;0.013086
0.815;-6.7766e-06;-2.9692e-05;-6.2883e-05;-0.00017726;0.0098633;-0.0096894;0.026426;0.010051
0.82;-1.1128e-05;-3.4326e-05;-8.4889e-05;-0.0002002;0.011652;-0.0052241;0.029686;0.016207
0.825;-1.5232e-05;-3.9019e-05;-0.00010611;-0.00022256;0.0082411;0.00042825;0.033169;0.030548
0.83;-1.921e-05;-4.3622e-05;-0.00012646;-0.00024391;0.0017788;0.0067916;0.036768;0.050295
0.835;-2.3222e-05;-4.796e-05;-0.00014585;-0.00026373;-0.0045032;0.014339;0.039581;0.07235
0.84;-2.7378e-05;-5.1826e-05;-0.00016424;-0.00028147;-0.0069574;0.023511;0.040638;0.093593
0.845;-3.1662e-05;-5.4976e-05;-0.00018163;-0.00029666;-0.0033725;0.033722;0.039274;0.11079
0.85;-3.5906e-05;-5.717e-05;-0.00019807;-0.00030896;0.0065134;0.042759;0.03647;0.12059
0.855;-3.9813e-05;-5.8233e-05;-0.00021363;-0.00031823;0.020427;0.047733;0.034608;0.12114
0.86;-4.3045e-05;-5.8119e-05;-0.0002283;-0.00032457;0.0336;0.046504;0.03575;0.11376
0.865;-4.534e-05;-5.6944e-05;-0.00024202;-0.00032821;0.041399;0.038389;0.041133;0.10264
0.87;-4.6608e-05;-5.4984e-05;-0.00025459;-0.0003294;0.040878;0.024434;0.050027;0.092733
0.875;-4.6961e-05;-5.2636e-05;-0.00026579;-0.00032835;0.032245;0.006646;0.060183;0.086753
0.88;-4.6675e-05;-5.0347e-05;-0.00027537;-0.00032515;0.018997;-0.011408;0.069153;0.084824
0.885;-4.6079e-05;-4.8509e-05;-0.00028315;-0.00031982;0.005748;-0.024692;0.074898;0.085869
0.89;-4.5463e-05;-4.7341e-05;-0.00028905;-0.00031232;-0.004182;-0.028961;0.076024;0.088393
0.895;-4.5012e-05;-4.6815e-05;-0.00029308;-0.00030256;-0.0090486;-0.022457;0.07267;0.091539
0.9;-4.4775e-05;-4.6654e-05;-0.00029537;-0.00029047;-0.0081445;-0.0068006;0.067048;0.094945
0.905;-4.4672e-05;-4.6406e-05;-0.00029605;-0.00027597;-0.002483;0.013792;0.062081;0.098194
0.91;-4.453e-05;-4.5557e-05;-0.00029519;-0.00025898;0.0055115;0.034279;0.060317;0.10074
0.915;-4.4164e-05;-4.3655e-05;-0.0002928;-0.00023946;0.012414;0.049968;0.062834;0.10178
0.92;-4.3457e-05;-4.0421e-05;-0.00028875;-0.00021742;0.014942;0.05663;0.068957;0.099674
0.925;-4.2422e-05;-3.5839e-05;-0.0002829;-0.00019298;0.011286;0.05134;0.07629;0.092326
0.93;-4.1216e-05;-3.0186e-05;-0.00027507;-0.00016641;0.0024618;0.034385;0.081577;0.078385
0.935;-4.0063e-05;-2.3981e-05;-0.00026518;-0.00013814;-0.0067371;0.0097382;0.082755;0.057449
0.94;-3.9129e-05;-1.7845e-05;-0.00025328;-0.00010876;-0.010814;-0.015198;0.078779;0.03099
0.945;-3.8415e-05;-1.2295e-05;-0.00023952;-7.8964e-05;-0.0068455;-0.03177;0.069668;0.0030993
0.95;-3.7736e-05;-7.5729e-06;-0.00022418;-4.9385e-05;0.004059;-0.034548;0.056841;-0.020824
0.955;-3.6792e-05;-3.5843e-06;-0.0002076;-2.0515e-05;0.017127;-0.024185;0.042406;-0.035972
0.96;-3.5298e-05;1.7636e-08;-0.00019012;7.4071e-06;0.026869;-0.0067658;0.02879;-0.039956
0.965;-3.3097e-05;3.6529e-06;-0.00017207;3.4404e-05;0.029777;0.0094521;0.018187;-0.034039
0.97;-3.0205e-05;7.6371e-06;-0.00015363;6.0696e-05;0.025524;0.018513;0.012003;-0.022415
0.975;-2.6791e-05;1.2096e-05;-0.00013492;8.6583e-05;0.016189;0.019526;0.010196;-0.0099804
0.98;-2.3116e-05;1.6987e-05;-0.00011594;0.00011233;0.0047603;0.015024;0.010878;-0.001422
0.985;-1.9451e-05;2.2167e-05;-9.6685e-05;0.00013805;-0.0055361;0.0080701;0.011287;-0.00052023
0.99;-1.5991e-05;2.746e-05;-7.7167e-05;0.00016365;-0.010991;0.001058;0.009824;-0.0089546
0.995;-1.2783e-05;3.2709e-05;-5.745e-05;0.00018881;-0.0091285;-0.0046384;0.0061097;-0.025902
1.0;-9.702e-06;3.7797e-05;-3.766e-05;0.00021305;-0.0010932;-0.008241;-0.00027104;-0.047899
1.005;-6.5083e-06;4.2654e-05;-1.7985e-05;0.0002358;0.010101;-0.010295;-0.0089343;-0.071193
1.01;-2.9568e-06;4.7218e-05;1.3793e-06;0.00025656;0.018555;-0.01313;-0.015901;-0.088442
1.015;1.0907e-06;5.1371e-05;2.031e-05;0.00027499;0.021155;-0.019629;-0.018816;-0.098041
1.02;5.6114e-06;5.4907e-05;3.8794e-05;0.00029094;0.01674;-0.029799;-0.016964;-0.099729
1.025;1.0419e-05;5.7574e-05;5.6934e-05;0.00030449;0.0062239;-0.03969;-0.010531;-0.093023
1.03;1.5228e-05;5.9197e-05;7.4928e-05;0.00031586;-0.0061201;-0.043934;-0.0012626;-0.081142
1.035;1.9764e-05;5.9791e-05;9.3004e-05;0.00032536;-0.01568;-0.038429;0.0079145;-0.068751
1.04;2.3859e-05;5.9617e-05;0.00011135;0.00033325;-0.019681;-0.023009;0.013733;-0.05986
1.045;2.7476e-05;5.9122e-05;0.00013003;0.00033967;-0.018542;-0.0026917;0.013207;-0.056926
1.05;3.0678e-05;5.8782e-05;0.00014894;0.00034464;-0.014756;0.01512;0.0051372;-0.059892
1.055;3.356e-05;5.8935e-05;0.00016781;0.00034802;-0.010783;0.024321;-0.0086028;-0.066749
1.06;3.6204e-05;5.9666e-05;0.00018627;0.00034963;-0.0082014;0.022025;-0.023894;-0.075344
1.065;3.8656e-05;6.0785e-05;0.00020399;0.00034925;-0.0072368;0.0090941;-0.035959;-0.084114
1.07;4.092e-05;6.1887e-05;0.00022073;0.00034666;-0.0076958;-0.010507;-0.041809;-0.091842
1.075;4.2968e-05;6.2466e-05;0.00023643;0.00034171;-0.0096955;-0.031289;-0.041658;-0.097618
1.08;4.4733e-05;6.2058e-05;0.00025113;0.00033427;-0.012843;-0.047663;-0.038059;-0.10095
1.085;4.6145e-05;6.0369e-05;0.00026493;0.00032431;-0.015496;-0.054965;-0.034229;-0.1018
1.09;4.7172e-05;5.7355e-05;0.0002779;0.0003118;-0.015201;-0.051045;-0.032573;-0.10074
1.095;4.789e-05;5.3239e-05;0.00029003;0.00029682;-0.0096674;-0.037145;-0.033598;-0.098111
1.1;4.8496e-05;4.8443e-05;0.00030129;0.00027945;0.00072386;-0.01725;-0.037207;-0.092797
1.105;4.9256e-05;4.3473e-05;0.00031152;0.00025988;0.011664;0.0032386;-0.044124;-0.082528
